"770from2 - RawData"
"Wavelength nm.","T%"
300.00,0.0407
302.00,0.0409
304.00,0.0404
306.00,0.0405
308.00,0.0406
310.00,0.0417
312.00,0.0417
314.00,0.0418
316.00,0.0417
318.00,0.0411
320.00,0.0405
322.00,0.0399
324.00,0.0405
326.00,0.0406
328.00,0.0412
330.00,0.0407
332.00,0.0409
334.00,0.0411
336.00,0.0413
338.00,0.0414
340.00,0.0423
342.00,0.0437
344.00,0.0432
346.00,0.0427
348.00,0.0420
350.00,0.0429
352.00,0.0429
354.00,0.0428
356.00,0.0434
358.00,0.0433
360.00,0.0439
362.00,0.0437
364.00,0.0438
366.00,0.0440
368.00,0.0442
370.00,0.0444
372.00,0.0444
374.00,0.0448
376.00,0.0448
378.00,0.0447
380.00,0.0438
382.00,0.0433
384.00,0.0430
386.00,0.0426
388.00,0.0430
390.00,0.0432
392.00,0.0436
394.00,0.0424
396.00,0.0426
398.00,0.0424
400.00,0.0435
402.00,0.0440
404.00,0.0450
406.00,0.0454
408.00,0.0456
410.00,0.0451
412.00,0.0450
414.00,0.0443
416.00,0.0440
418.00,0.0435
420.00,0.0431
422.00,0.0433
424.00,0.0437
426.00,0.0438
428.00,0.0435
430.00,0.0429
432.00,0.0427
434.00,0.0432
436.00,0.0439
438.00,0.0454
440.00,0.0464
442.00,0.0471
444.00,0.0465
446.00,0.0462
448.00,0.0458
450.00,0.0455
452.00,0.0449
454.00,0.0443
456.00,0.0435
458.00,0.0435
460.00,0.0439
462.00,0.0452
464.00,0.0454
466.00,0.0458
468.00,0.0463
470.00,0.0468
472.00,0.0459
474.00,0.0448
476.00,0.0445
478.00,0.0446
480.00,0.0446
482.00,0.0449
484.00,0.0455
486.00,0.0452
488.00,0.0447
490.00,0.0437
492.00,0.0442
494.00,0.0447
496.00,0.0459
498.00,0.0468
500.00,0.0465
502.00,0.0467
504.00,0.0462
506.00,0.0463
508.00,0.0455
510.00,0.0451
512.00,0.0450
514.00,0.0448
516.00,0.0439
518.00,0.0434
520.00,0.0431
522.00,0.0437
524.00,0.0445
526.00,0.0460
528.00,0.0468
530.00,0.0475
532.00,0.0470
534.00,0.0464
536.00,0.0455
538.00,0.0456
540.00,0.0459
542.00,0.0464
544.00,0.0470
546.00,0.0472
548.00,0.0470
550.00,0.0463
552.00,0.0456
554.00,0.0450
556.00,0.0439
558.00,0.0437
560.00,0.0444
562.00,0.0446
564.00,0.0445
566.00,0.0438
568.00,0.0438
570.00,0.0439
572.00,0.0440
574.00,0.0441
576.00,0.0442
578.00,0.0445
580.00,0.0444
582.00,0.0442
584.00,0.0444
586.00,0.0441
588.00,0.0444
590.00,0.0436
592.00,0.0439
594.00,0.0434
596.00,0.0438
598.00,0.0439
600.00,0.0444
602.00,0.0443
604.00,0.0439
606.00,0.0440
608.00,0.0442
610.00,0.0445
612.00,0.0441
614.00,0.0439
616.00,0.0439
618.00,0.0439
620.00,0.0438
622.00,0.0439
624.00,0.0441
626.00,0.0444
628.00,0.0446
630.00,0.0444
632.00,0.0444
634.00,0.0447
636.00,0.0450
638.00,0.0451
640.00,0.0449
642.00,0.0456
644.00,0.0459
646.00,0.0457
648.00,0.0456
650.00,0.0463
652.00,0.0473
654.00,0.0471
656.00,0.0476
658.00,0.0474
660.00,0.0473
662.00,0.0460
664.00,0.0453
666.00,0.0455
668.00,0.0458
670.00,0.0469
672.00,0.0489
674.00,0.0539
676.00,0.0626
678.00,0.0745
680.00,0.0860
682.00,0.0924
684.00,0.0901
686.00,0.0809
688.00,0.0691
690.00,0.0600
692.00,0.0542
694.00,0.0518
696.00,0.0512
698.00,0.0527
700.00,0.0553
702.00,0.0600
704.00,0.0691
706.00,0.0888
708.00,0.1302
710.00,0.2198
712.00,0.4274
714.00,0.9466
716.00,2.1610
718.00,4.7125
720.00,9.4221
722.00,15.7021
724.00,22.5540
726.00,28.3429
728.00,32.5839
730.00,35.1521
732.00,36.5688
734.00,37.5739
736.00,38.6363
738.00,39.8013
740.00,40.8387
742.00,41.5516
744.00,41.8779
746.00,41.9078
748.00,41.7610
750.00,41.5663
752.00,41.4313
754.00,41.4169
756.00,41.5248
758.00,41.7102
760.00,41.9280
762.00,42.1276
764.00,42.2913
766.00,42.4245
768.00,42.5616
770.00,42.7201
772.00,42.8848
774.00,43.0138
776.00,43.0755
778.00,43.0309
780.00,42.8715
782.00,42.5978
784.00,42.2919
786.00,42.0615
788.00,42.0026
790.00,42.1290
792.00,42.3973
794.00,42.6865
796.00,42.8815
798.00,42.8597
800.00,42.5789
802.00,42.0377
804.00,41.3186
806.00,40.5434
808.00,39.8829
810.00,39.4768
812.00,39.4276
814.00,39.6824
816.00,39.9647
818.00,39.7707
820.00,38.5736
822.00,35.9191
824.00,31.6865
826.00,26.1079
828.00,19.8475
830.00,13.3070
832.00,7.8435
834.00,4.0455
836.00,2.1548
838.00,1.1230
840.00,0.5972
842.00,0.3395
844.00,0.2163
846.00,0.1561
848.00,0.1242
850.00,0.1032
852.00,0.0940
854.00,0.0875
856.00,0.0875
858.00,0.0839
860.00,0.0820
862.00,0.0819
864.00,0.0807
866.00,0.0798
868.00,0.0770
870.00,0.0765
872.00,0.0761
874.00,0.0759
876.00,0.0760
878.00,0.0770
880.00,0.0775
882.00,0.0771
884.00,0.0782
886.00,0.0790
888.00,0.0807
890.00,0.0811
892.00,0.0794
894.00,0.0786
896.00,0.0792
898.00,0.0798
900.00,0.0782
902.00,0.0756
904.00,0.0750
906.00,0.0749
908.00,0.0744
910.00,0.0742
912.00,0.0746
914.00,0.0746
916.00,0.0747
918.00,0.0755
920.00,0.0756
922.00,0.0752
924.00,0.0745
926.00,0.0750
928.00,0.0757
930.00,0.0757
932.00,0.0739
934.00,0.0740
936.00,0.0751
938.00,0.0771
940.00,0.0769
942.00,0.0767
944.00,0.0785
946.00,0.0833
948.00,0.0887
950.00,0.0955
952.00,0.0999
954.00,0.1012
956.00,0.0975
958.00,0.0914
960.00,0.0845
962.00,0.0791
964.00,0.0764
966.00,0.0752
968.00,0.0751
970.00,0.0748
972.00,0.0747
974.00,0.0747
976.00,0.0751
978.00,0.0750
980.00,0.0745
982.00,0.0741
984.00,0.0748
986.00,0.0749
988.00,0.0750
990.00,0.0742
992.00,0.0738
994.00,0.0738
996.00,0.0736
998.00,0.0742
1000.00,0.0743
1002.00,0.0746
1004.00,0.0744
1006.00,0.0745
1008.00,0.0748
1010.00,0.0749
1012.00,0.0748
1014.00,0.0748
1016.00,0.0748
1018.00,0.0749
1020.00,0.0745
1022.00,0.0749
1024.00,0.0751
1026.00,0.0755
1028.00,0.0751
1030.00,0.0748
1032.00,0.0747
1034.00,0.0749
1036.00,0.0748
1038.00,0.0750
1040.00,0.0750
1042.00,0.0751
1044.00,0.0752
1046.00,0.0755
1048.00,0.0756
1050.00,0.0754
1052.00,0.0749
1054.00,0.0748
1056.00,0.0752
1058.00,0.0761
1060.00,0.0770
1062.00,0.0771
1064.00,0.0767
1066.00,0.0765
1068.00,0.0764
1070.00,0.0764
1072.00,0.0763
1074.00,0.0760
1076.00,0.0762
1078.00,0.0769
1080.00,0.0776
1082.00,0.0782
1084.00,0.0784
1086.00,0.0795
1088.00,0.0809
1090.00,0.0850
1092.00,0.0934
1094.00,0.1095
1096.00,0.1324
1098.00,0.1581
1100.00,0.1776
1102.00,0.1830
1104.00,0.1728
1106.00,0.1527
1108.00,0.1317
1110.00,0.1155
1112.00,0.1063
1114.00,0.1021
1116.00,0.1010
1118.00,0.1011
1120.00,0.1031
1122.00,0.1064
1124.00,0.1111
1126.00,0.1162
1128.00,0.1221
1130.00,0.1284
1132.00,0.1347
1134.00,0.1404
1136.00,0.1455
1138.00,0.1496
1140.00,0.1534
1142.00,0.1577
1144.00,0.1641
1146.00,0.1742
1148.00,0.1895
1150.00,0.2128
1152.00,0.2483
1154.00,0.3027
1156.00,0.3807
1158.00,0.4770
1160.00,0.5760
1162.00,0.6525
1164.00,0.6852
1166.00,0.6651
1168.00,0.6026
1170.00,0.5195
1172.00,0.4388
1174.00,0.3732
1176.00,0.3282
1178.00,0.3002
1180.00,0.2855
1182.00,0.2807
1184.00,0.2835
1186.00,0.2938
1188.00,0.3121
1190.00,0.3402
1192.00,0.3785
1194.00,0.4300
1196.00,0.4966
1198.00,0.5805
1200.00,0.6807
1202.00,0.8008
1204.00,0.9404
1206.00,1.0966
1208.00,1.2629
1210.00,1.4349
1212.00,1.6201
1214.00,1.8206
1216.00,2.0569
1218.00,2.3436
1220.00,2.7214
1222.00,3.2282
1224.00,3.9420
1226.00,4.9293
1228.00,6.3103
1230.00,8.1209
1232.00,10.3910
1234.00,12.8961
1236.00,15.4156
1238.00,17.5787
1240.00,19.1842
1242.00,20.1068
1244.00,20.4806
1246.00,20.5665
1248.00,20.6681
1250.00,21.0424
1252.00,21.8640
1254.00,23.2117
1256.00,25.0850
1258.00,27.3469
1260.00,29.7769
1262.00,32.0187
1264.00,33.7152
1266.00,34.5739
1268.00,34.4890
1270.00,33.5671
1272.00,32.0571
1274.00,30.2766
1276.00,28.4940
1278.00,26.9398
1280.00,25.7147
1282.00,24.8532
1284.00,24.2749
1286.00,23.8852
1288.00,23.5671
1290.00,23.2160
1292.00,22.7325
1294.00,22.0643
1296.00,21.1792
1298.00,20.1494
1300.00,19.0040
1302.00,17.8217
1304.00,16.6360
1306.00,15.5484
1308.00,14.6369
1310.00,13.9757
1312.00,13.5793
1314.00,13.4438
1316.00,13.5477
1318.00,13.9127
1320.00,14.5764
1322.00,15.5809
1324.00,16.9771
1326.00,18.7790
1328.00,21.0587
1330.00,23.7946
1332.00,26.9185
1334.00,30.1470
1336.00,33.1107
1338.00,35.4223
1340.00,36.8339
1342.00,37.2464
1344.00,36.6972
1346.00,35.3418
1348.00,33.4869
1350.00,31.4408
1352.00,29.4896
1354.00,27.7872
1356.00,26.4120
1358.00,25.3847
1360.00,24.7096
1362.00,24.4061
1364.00,24.4619
1366.00,24.8576
1368.00,25.5484
1370.00,26.5031
1372.00,27.6487
1374.00,28.9304
1376.00,30.2940
1378.00,31.7260
1380.00,33.2090
1382.00,34.6775
1384.00,36.0646
1386.00,37.3095
1388.00,38.3788
1390.00,39.2984
1392.00,40.0880
1394.00,40.7810
1396.00,41.3596
1398.00,41.8196
1400.00,42.1408
1402.00,42.2961
1404.00,42.2547
1406.00,41.9818
1408.00,41.4461
1410.00,40.6089
1412.00,39.4553
1414.00,38.0253
1416.00,36.4038
1418.00,34.6424
1420.00,32.8061
1422.00,30.9542
1424.00,29.1736
1426.00,27.5296
1428.00,26.0684
1430.00,24.8356
1432.00,23.8172
1434.00,23.0113
1436.00,22.3950
1438.00,21.9652
1440.00,21.6961
1442.00,21.5765
1444.00,21.5870
1446.00,21.7015
1448.00,21.8995
1450.00,22.1395
1452.00,22.3915
1454.00,22.6119
1456.00,22.7730
1458.00,22.8431
1460.00,22.7947
1462.00,22.6170
1464.00,22.3076
1466.00,21.8771
1468.00,21.3624
1470.00,20.7994
1472.00,20.2254
1474.00,19.6541
1476.00,19.1038
1478.00,18.6068
1480.00,18.1859
1482.00,17.8657
1484.00,17.6507
1486.00,17.5488
1488.00,17.5604
1490.00,17.6977
1492.00,17.9655
1494.00,18.3691
1496.00,18.9030
1498.00,19.5563
1500.00,20.3284
1502.00,21.2013
1504.00,22.1744
1506.00,23.2019
1508.00,24.2329
1510.00,25.1901
1512.00,26.0343
1514.00,26.7152
1516.00,27.1998
1518.00,27.4547
1520.00,27.4786
1522.00,27.2815
1524.00,26.8923
1526.00,26.3549
1528.00,25.7130
1530.00,25.0085
1532.00,24.3002
1534.00,23.6453
1536.00,23.0936
1538.00,22.6571
1540.00,22.3464
1542.00,22.1580
1544.00,22.1073
1546.00,22.2045
1548.00,22.4558
1550.00,22.8602
1552.00,23.4068
1554.00,24.1054
1556.00,24.9563
1558.00,25.9804
1560.00,27.1638
1562.00,28.4882
1564.00,29.9176
1566.00,31.4288
1568.00,32.9791
1570.00,34.5108
1572.00,35.9485
1574.00,37.2488
1576.00,38.3541
1578.00,39.2512
1580.00,39.9101
1582.00,40.3486
1584.00,40.5766
1586.00,40.6175
1588.00,40.5101
1590.00,40.2883
1592.00,39.9986
1594.00,39.6740
1596.00,39.3674
1598.00,39.1072
1600.00,38.9234
1602.00,38.8280
1604.00,38.8468
1606.00,38.9753
1608.00,39.2037
1610.00,39.5346
1612.00,39.9463
1614.00,40.4187
1616.00,40.9030
1618.00,41.3846
1620.00,41.8472
1622.00,42.2591
1624.00,42.5794
1626.00,42.7719
1628.00,42.8198
1630.00,42.7190
1632.00,42.4644
1634.00,42.0615
1636.00,41.5406
1638.00,40.9158
1640.00,40.2369
1642.00,39.5375
1644.00,38.8435
1646.00,38.1789
1648.00,37.5466
1650.00,35.9935
1652.00,34.2393
1654.00,32.4996
1656.00,32.1931
1658.00,31.9914
1660.00,32.3505
1662.00,32.3588
1664.00,32.8085
1666.00,32.9718
1668.00,33.0982
1670.00,33.2385
1672.00,33.7048
1674.00,34.3147
1676.00,35.0137
1678.00,35.6001
1680.00,36.2253
1682.00,36.5370
1684.00,36.6464
1686.00,36.7597
1688.00,36.7976
1690.00,36.9185
1692.00,36.7088
1694.00,36.3353
1696.00,35.0901
1698.00,34.3640
1700.00,33.3220
1702.00,32.8782
1704.00,31.7895
1706.00,31.2380
1708.00,30.4291
1710.00,29.2983
1712.00,28.3570
1714.00,27.2397
1716.00,26.8105
1718.00,25.9410
1720.00,25.6792
1722.00,25.1268
1724.00,25.2519
1726.00,24.8568
1728.00,24.6718
1730.00,24.2358
1732.00,24.4873
1734.00,25.2340
1736.00,25.5085
1738.00,25.4371
1740.00,25.5727
1742.00,26.3653
1744.00,27.6894
1746.00,28.4496
1748.00,28.6973
1750.00,28.8172
1752.00,28.8216
1754.00,29.8200
1756.00,30.3864
1758.00,31.0757
1760.00,31.0268
1762.00,30.8925
1764.00,30.6796
1766.00,30.9859
1768.00,30.6842
1770.00,30.8338
1772.00,30.4354
1774.00,31.0089
1776.00,30.9040
1778.00,30.6369
1780.00,29.3742
1782.00,28.6377
1784.00,27.7835
1786.00,27.7819
1788.00,27.7208
1790.00,27.8518
1792.00,26.8990
1794.00,26.5635
1796.00,25.9540
1798.00,26.1737
1800.00,25.3580
1802.00,25.0109
1804.00,25.2008
1806.00,26.3671
1808.00,27.5776
1810.00,28.5150
1812.00,28.5323
1814.00,29.0877
1816.00,29.7231
1818.00,30.6178
1820.00,31.0033
1822.00,31.8765
1824.00,32.6765
1826.00,33.3205
1828.00,33.8134
1830.00,34.4652
1832.00,34.9376
1834.00,35.4286
1836.00,35.5750
1838.00,36.1394
1840.00,36.3144
1842.00,36.5884
1844.00,36.9828
1846.00,36.6555
1848.00,36.1949
1850.00,35.4880
1852.00,35.5878
1854.00,35.0158
1856.00,34.1423
1858.00,33.5281
1860.00,33.4070
1862.00,33.8515
1864.00,33.6689
1866.00,33.9700
1868.00,33.5657
1870.00,32.9038
1872.00,32.3884
1874.00,32.2474
1876.00,31.9651
1878.00,31.9396
1880.00,31.8922
1882.00,32.7754
1884.00,32.5208
1886.00,32.7336
1888.00,33.1463
1890.00,33.8820
1892.00,34.0707
1894.00,34.0294
1896.00,34.3140
1898.00,34.7275
1900.00,35.0877
1902.00,35.5778
1904.00,36.6585
1906.00,37.0519
1908.00,37.3449
1910.00,37.1873
1912.00,37.2545
1914.00,37.5992
1916.00,37.8937
1918.00,37.6637
1920.00,37.8151
1922.00,37.2426
1924.00,37.9389
1926.00,38.0346
1928.00,37.8774
1930.00,37.7347
1932.00,36.8673
1934.00,36.3804
1936.00,36.0015
1938.00,35.8277
1940.00,36.5615
1942.00,36.0829
1944.00,36.2411
1946.00,35.6712
1948.00,35.2678
1950.00,34.6054
1952.00,34.3076
1954.00,34.3024
1956.00,34.2860
1958.00,34.0549
1960.00,34.4970
1962.00,34.1423
1964.00,34.3466
1966.00,34.2543
1968.00,34.9530
1970.00,34.8062
1972.00,34.7991
1974.00,35.1158
1976.00,35.5548
1978.00,36.1029
1980.00,35.9106
1982.00,36.4530
1984.00,36.5982
1986.00,36.4891
1988.00,36.3181
1990.00,36.0160
1992.00,36.7186
1994.00,36.5332
1996.00,36.0816
1998.00,36.1408
2000.00,35.7791
2002.00,36.2107
2004.00,36.0085
2006.00,35.8848
2008.00,35.6025
2010.00,34.3158
2012.00,34.4746
2014.00,33.8284
2016.00,33.7629
2018.00,33.5181
2020.00,33.5252
2022.00,33.6779
2024.00,32.5955
2026.00,32.4922
2028.00,31.9188
2030.00,32.0169
2032.00,30.5290
2034.00,30.3614
2036.00,30.1734
2038.00,29.7094
2040.00,28.8382
2042.00,28.7700
2044.00,29.3704
2046.00,29.9207
2048.00,29.6574
2050.00,29.2989
2052.00,28.9513
2054.00,29.3395
2056.00,30.3066
2058.00,30.4126
2060.00,29.8764
2062.00,29.4718
2064.00,29.7430
2066.00,30.7730
2068.00,31.2829
2070.00,31.0626
2072.00,30.6757
2074.00,30.9304
2076.00,31.9222
2078.00,32.9652
2080.00,33.1672
2082.00,32.9194
2084.00,32.5931
2086.00,32.9518
2088.00,33.3589
2090.00,33.7386
2092.00,33.3637
2094.00,34.0310
2096.00,33.8223
2098.00,34.4868
2100.00,34.5292
2102.00,34.9137
2104.00,35.2629
2106.00,34.5391
2108.00,33.6503
2110.00,32.5609
2112.00,32.4516
2114.00,32.4258
2116.00,33.0998
2118.00,32.0499
2120.00,31.3358
2122.00,30.1056
2124.00,29.9583
2126.00,29.7504
2128.00,30.1637
2130.00,30.0902
2132.00,29.3479
2134.00,28.5985
2136.00,27.7960
2138.00,28.0297
2140.00,27.6433
2142.00,28.4764
2144.00,28.3792
2146.00,27.4465
2148.00,26.4594
2150.00,26.7628
2152.00,27.4848
2154.00,28.3749
2156.00,28.3311
2158.00,28.1610
2160.00,27.7685
2162.00,27.9353
2164.00,28.8827
2166.00,29.1154
2168.00,29.4450
2170.00,29.2880
2172.00,29.3089
2174.00,29.6154
2176.00,28.9359
2178.00,30.3042
2180.00,29.8976
2182.00,31.2678
2184.00,31.0402
2186.00,31.3740
2188.00,31.7299
2190.00,32.1953
2192.00,31.9947
2194.00,32.3614
2196.00,31.7789
2198.00,33.3402
2200.00,34.1849
2202.00,34.5685
2204.00,34.2536
2206.00,33.8143
2208.00,34.3194
2210.00,33.8843
2212.00,33.4953
2214.00,33.6018
2216.00,33.9346
2218.00,33.5229
2220.00,33.0536
2222.00,33.1598
2224.00,33.6028
2226.00,33.4627
2228.00,33.3230
2230.00,31.1691
2232.00,30.8070
2234.00,29.7434
2236.00,31.0355
2238.00,30.4246
2240.00,30.2846
2242.00,29.5219
2244.00,29.7768
2246.00,29.7607
2248.00,30.1420
2250.00,29.8964
2252.00,29.6006
2254.00,29.0293
2256.00,29.5278
2258.00,30.2325
2260.00,29.8939
2262.00,28.7461
2264.00,27.1967
2266.00,28.5751
2268.00,28.7640
2270.00,29.2418
2272.00,28.1587
2274.00,29.0460
2276.00,29.8551
2278.00,30.8809
2280.00,30.4425
2282.00,29.9328
2284.00,29.0135
2286.00,29.6422
2288.00,31.3305
2290.00,32.1954
2292.00,31.5996
2294.00,30.2338
2296.00,30.1659
2298.00,31.6714
2300.00,32.1513
2302.00,32.7377
2304.00,32.6936
2306.00,34.1362
2308.00,34.0448
2310.00,34.2211
2312.00,33.9179
2314.00,35.0163
2316.00,35.3820
2318.00,35.7293
2320.00,35.4347
2322.00,35.2136
2324.00,34.9536
2326.00,34.3515
2328.00,35.1708
2330.00,35.1401
2332.00,37.2199
2334.00,36.9355
2336.00,36.5046
2338.00,35.0275
2340.00,34.3005
2342.00,35.7407
2344.00,35.5443
2346.00,35.7856
2348.00,35.5965
2350.00,36.3597
2352.00,35.8197
2354.00,35.1848
2356.00,34.6488
2358.00,34.9117
2360.00,34.1911
2362.00,33.9365
2364.00,33.6742
2366.00,33.7202
2368.00,32.5118
2370.00,31.7908
2372.00,32.9117
2374.00,33.8907
2376.00,33.5556
2378.00,33.5961
2380.00,33.0281
2382.00,31.8656
2384.00,31.4095
2386.00,31.7854
2388.00,32.8267
2390.00,32.3180
2392.00,30.9208
2394.00,32.5102
2396.00,31.8655
2398.00,33.2147
2400.00,32.3176
2402.00,32.2303
2404.00,30.9087
2406.00,31.2685
2408.00,31.6358
2410.00,33.5177
2412.00,33.6804
2414.00,34.3476
2416.00,34.2572
2418.00,34.7730
2420.00,34.3687
2422.00,33.8049
2424.00,33.2044
2426.00,33.7417
2428.00,34.8508
2430.00,37.5857
2432.00,37.1306
2434.00,36.5168
2436.00,34.0006
2438.00,34.5519
2440.00,34.9841
2442.00,37.1632
2444.00,36.0219
2446.00,35.6886
2448.00,34.0342
2450.00,36.0542
2452.00,35.5512
2454.00,35.2350
2456.00,33.8655
2458.00,34.3541
2460.00,35.4970
2462.00,36.8380
2464.00,36.3856
2466.00,34.7855
2468.00,31.9448
2470.00,32.1758
2472.00,31.7894
2474.00,32.0593
2476.00,31.7977
2478.00,32.8459
2480.00,32.2188
2482.00,32.0831
2484.00,31.8380
2486.00,33.5497
2488.00,33.8044
2490.00,34.0491
2492.00,32.9399
2494.00,31.1332
2496.00,30.3021
2498.00,31.9912
2500.00,33.1398
2502.00,33.1614
2504.00,32.4797
2506.00,32.3768
2508.00,32.4441
2510.00,31.3665
2512.00,31.0169
2514.00,30.2443
2516.00,30.1148
2518.00,30.1037
2520.00,30.2317
2522.00,30.4889
2524.00,31.5292
2526.00,31.5278
2528.00,31.4717
2530.00,30.6473
2532.00,31.0323
2534.00,31.9275
2536.00,32.4114
2538.00,32.3615
2540.00,31.4308
2542.00,31.6985
2544.00,32.4970
2546.00,32.7569
2548.00,32.6914
2550.00,31.4438
2552.00,31.2569
2554.00,30.1802
2556.00,30.1740
2558.00,31.1816
2560.00,32.6637
2562.00,32.2192
2564.00,33.7972
2566.00,32.8243
2568.00,33.4732
2570.00,32.4420
2572.00,33.4996
2574.00,34.8340
2576.00,35.6873
2578.00,36.2397
2580.00,37.0880
2582.00,36.1542
2584.00,35.6406
2586.00,34.2577
2588.00,35.2702
2590.00,36.2013
2592.00,36.5995
2594.00,34.5650
2596.00,33.9571
2598.00,34.6405
2600.00,38.0214
2602.00,37.2188
2604.00,37.6324
2606.00,36.2669
2608.00,36.7623
2610.00,35.4295
2612.00,32.2871
2614.00,30.1677
2616.00,30.8453
2618.00,33.0162
2620.00,34.6937
2622.00,34.4964
2624.00,34.4572
2626.00,33.7459
2628.00,32.0660
2630.00,31.7408
2632.00,32.3725
2634.00,32.5361
2636.00,32.5675
2638.00,32.9843
2640.00,33.4976
2642.00,32.9588
2644.00,32.4763
2646.00,32.4172
2648.00,32.2557
2650.00,31.8399
2652.00,32.3291
2654.00,31.9257
2656.00,32.4759
2658.00,31.9168
2660.00,32.8550
2662.00,32.4702
2664.00,30.5361
2666.00,28.2550
2668.00,27.8682
2670.00,29.2720
2672.00,29.9484
2674.00,27.1630
2676.00,27.7262
2678.00,27.8839
2680.00,29.8681
2682.00,28.8240
2684.00,29.1338
2686.00,28.0240
2688.00,28.7317
2690.00,25.7467
2692.00,26.9127
2694.00,25.1682
2696.00,26.1246
2698.00,25.5272
2700.00,24.6260
2702.00,23.5245
2704.00,22.9379
2706.00,22.0942
2708.00,21.3818
2710.00,19.8723
2712.00,18.7373
2714.00,17.6520
2716.00,16.0937
2718.00,14.6513
2720.00,13.9124
2722.00,13.4810
2724.00,12.6519
2726.00,12.4658
2728.00,12.6118
2730.00,11.6707
2732.00,11.4142
2734.00,10.8421
2736.00,9.2182
2738.00,9.1923
2740.00,9.7288
2742.00,9.3893
2744.00,9.4098
2746.00,10.4820
2748.00,9.2417
2750.00,8.7458
2752.00,8.5787
2754.00,8.6220
2756.00,7.6091
2758.00,7.6009
2760.00,7.5888
2762.00,7.8739
2764.00,7.7089
2766.00,8.2080
2768.00,8.4708
2770.00,8.3102
2772.00,7.5063
2774.00,7.5578
2776.00,8.0538
2778.00,7.8977
2780.00,8.1861
2782.00,8.4750
2784.00,8.5140
2786.00,8.0048
2788.00,8.0550
2790.00,7.9714
2792.00,7.9654
2794.00,8.1180
2796.00,8.6225
2798.00,8.9103
2800.00,8.9289
2802.00,9.4541
2804.00,9.9299
2806.00,10.2699
2808.00,10.2907
2810.00,10.8070
2812.00,11.0011
2814.00,10.4161
2816.00,9.8144
2818.00,10.3098
2820.00,10.0948
2822.00,10.0022
2824.00,10.2950
2826.00,10.2382
2828.00,9.7881
2830.00,10.1437
2832.00,10.2611
2834.00,10.4460
2836.00,10.7293
2838.00,10.7933
2840.00,10.4810
2842.00,10.6803
2844.00,10.7843
2846.00,11.0185
2848.00,11.1629
2850.00,11.8392
2852.00,12.1590
2854.00,12.2831
2856.00,12.1978
2858.00,12.6085
2860.00,12.1703
2862.00,11.6885
2864.00,11.2092
2866.00,11.1530
2868.00,11.1948
2870.00,11.1836
2872.00,11.5369
2874.00,12.1858
2876.00,13.3392
2878.00,13.3682
2880.00,13.3965
2882.00,13.6719
2884.00,13.9038
2886.00,13.0867
2888.00,13.0816
2890.00,13.6340
2892.00,12.9017
2894.00,12.7769
2896.00,13.2976
2898.00,13.6247
2900.00,13.8083
2902.00,14.8708
2904.00,15.4861
2906.00,15.4972
2908.00,16.2298
2910.00,16.0266
2912.00,16.0845
2914.00,15.9774
2916.00,15.3873
2918.00,15.0651
2920.00,15.7515
2922.00,15.9644
2924.00,15.9204
2926.00,17.2821
2928.00,17.7482
2930.00,18.0064
2932.00,18.1631
2934.00,18.6216
2936.00,18.9427
2938.00,18.1482
2940.00,18.2501
2942.00,18.8831
2944.00,18.7132
2946.00,17.9997
2948.00,18.1122
2950.00,18.5918
2952.00,17.8098
2954.00,18.5426
2956.00,19.8350
2958.00,19.6623
2960.00,19.0590
2962.00,19.5755
2964.00,20.0223
2966.00,19.9479
2968.00,23.2670
2970.00,23.9071
2972.00,24.7342
2974.00,24.6296
2976.00,23.4502
2978.00,21.2196
2980.00,21.4283
2982.00,20.4291
2984.00,19.4310
2986.00,19.2673
2988.00,19.4172
2990.00,19.5185
2992.00,19.4551
2994.00,21.3403
2996.00,22.9493
2998.00,23.7662
3000.00,24.1445
