"840_1 - RawData"
"Wavelength nm.","T%"
190.00,0.0528
192.00,0.0547
194.00,0.0578
196.00,0.0615
198.00,0.0635
200.00,0.0643
202.00,0.0651
204.00,0.0655
206.00,0.0662
208.00,0.0670
210.00,0.0675
212.00,0.0682
214.00,0.0678
216.00,0.0686
218.00,0.0686
220.00,0.0687
222.00,0.0690
224.00,0.0695
226.00,0.0695
228.00,0.0697
230.00,0.0698
232.00,0.0703
234.00,0.0703
236.00,0.0702
238.00,0.0704
240.00,0.0703
242.00,0.0702
244.00,0.0702
246.00,0.0703
248.00,0.0706
250.00,0.0703
252.00,0.0706
254.00,0.0706
256.00,0.0710
258.00,0.0711
260.00,0.0717
262.00,0.0715
264.00,0.0714
266.00,0.0710
268.00,0.0709
270.00,0.0709
272.00,0.0711
274.00,0.0714
276.00,0.0714
278.00,0.0715
280.00,0.0718
282.00,0.0719
284.00,0.0719
286.00,0.0715
288.00,0.0716
290.00,0.0715
292.00,0.0714
294.00,0.0639
296.00,0.0564
298.00,0.0493
300.00,0.0490
302.00,0.0489
304.00,0.0490
306.00,0.0493
308.00,0.0493
310.00,0.0489
312.00,0.0490
314.00,0.0493
316.00,0.0497
318.00,0.0492
320.00,0.0488
322.00,0.0487
324.00,0.0489
326.00,0.0492
328.00,0.0497
330.00,0.0495
332.00,0.0491
334.00,0.0486
336.00,0.0493
338.00,0.0503
340.00,0.0522
342.00,0.0537
344.00,0.0560
346.00,0.0569
348.00,0.0580
350.00,0.0574
352.00,0.0558
354.00,0.0536
356.00,0.0516
358.00,0.0508
360.00,0.0503
362.00,0.0496
364.00,0.0490
366.00,0.0489
368.00,0.0489
370.00,0.0495
372.00,0.0495
374.00,0.0504
376.00,0.0504
378.00,0.0507
380.00,0.0507
382.00,0.0506
384.00,0.0504
386.00,0.0502
388.00,0.0502
390.00,0.0506
392.00,0.0509
394.00,0.0508
396.00,0.0507
398.00,0.0507
400.00,0.0509
402.00,0.0508
404.00,0.0511
406.00,0.0512
408.00,0.0515
410.00,0.0514
412.00,0.0513
414.00,0.0515
416.00,0.0512
418.00,0.0510
420.00,0.0503
422.00,0.0508
424.00,0.0508
426.00,0.0512
428.00,0.0509
430.00,0.0505
432.00,0.0499
434.00,0.0497
436.00,0.0508
438.00,0.0511
440.00,0.0513
442.00,0.0508
444.00,0.0511
446.00,0.0512
448.00,0.0511
450.00,0.0510
452.00,0.0507
454.00,0.0505
456.00,0.0507
458.00,0.0502
460.00,0.0505
462.00,0.0515
464.00,0.0548
466.00,0.0591
468.00,0.0636
470.00,0.0659
472.00,0.0657
474.00,0.0626
476.00,0.0585
478.00,0.0546
480.00,0.0533
482.00,0.0538
484.00,0.0552
486.00,0.0567
488.00,0.0582
490.00,0.0586
492.00,0.0578
494.00,0.0554
496.00,0.0538
498.00,0.0525
500.00,0.0525
502.00,0.0521
504.00,0.0520
506.00,0.0517
508.00,0.0513
510.00,0.0520
512.00,0.0526
514.00,0.0536
516.00,0.0522
518.00,0.0520
520.00,0.0508
522.00,0.0517
524.00,0.0513
526.00,0.0521
528.00,0.0521
530.00,0.0524
532.00,0.0528
534.00,0.0528
536.00,0.0524
538.00,0.0515
540.00,0.0514
542.00,0.0515
544.00,0.0514
546.00,0.0516
548.00,0.0518
550.00,0.0523
552.00,0.0529
554.00,0.0535
556.00,0.0536
558.00,0.0535
560.00,0.0536
562.00,0.0536
564.00,0.0538
566.00,0.0533
568.00,0.0534
570.00,0.0533
572.00,0.0535
574.00,0.0546
576.00,0.0570
578.00,0.0602
580.00,0.0652
582.00,0.0706
584.00,0.0758
586.00,0.0780
588.00,0.0764
590.00,0.0718
592.00,0.0655
594.00,0.0606
596.00,0.0573
598.00,0.0557
600.00,0.0549
602.00,0.0548
604.00,0.0556
606.00,0.0571
608.00,0.0587
610.00,0.0609
612.00,0.0635
614.00,0.0680
616.00,0.0731
618.00,0.0804
620.00,0.0883
622.00,0.0979
624.00,0.1071
626.00,0.1159
628.00,0.1220
630.00,0.1245
632.00,0.1224
634.00,0.1177
636.00,0.1121
638.00,0.1079
640.00,0.1058
642.00,0.1049
644.00,0.1042
646.00,0.1033
648.00,0.1025
650.00,0.1018
652.00,0.1013
654.00,0.1010
656.00,0.1010
658.00,0.1011
660.00,0.1004
662.00,0.0999
664.00,0.0981
666.00,0.0972
668.00,0.0964
670.00,0.0971
672.00,0.0989
674.00,0.1007
676.00,0.1029
678.00,0.1045
680.00,0.1059
682.00,0.1067
684.00,0.1068
686.00,0.1066
688.00,0.1069
690.00,0.1079
692.00,0.1099
694.00,0.1127
696.00,0.1161
698.00,0.1189
700.00,0.1210
702.00,0.1216
704.00,0.1215
706.00,0.1195
708.00,0.1173
710.00,0.1150
712.00,0.1139
714.00,0.1141
716.00,0.1163
718.00,0.1198
720.00,0.1412
722.00,0.1641
724.00,0.1886
726.00,0.1962
728.00,0.2020
730.00,0.2031
732.00,0.2004
734.00,0.1943
736.00,0.1878
738.00,0.1824
740.00,0.1790
742.00,0.1773
744.00,0.1769
746.00,0.1780
748.00,0.1810
750.00,0.1854
752.00,0.1918
754.00,0.2008
756.00,0.2142
758.00,0.2335
760.00,0.2641
762.00,0.3130
764.00,0.3917
766.00,0.5217
768.00,0.7487
770.00,1.1727
772.00,1.9963
774.00,3.5546
776.00,6.1931
778.00,10.3355
780.00,15.9971
782.00,22.9620
784.00,30.4552
786.00,37.4338
788.00,42.8806
790.00,46.2953
792.00,47.9734
794.00,48.5905
796.00,48.7725
798.00,48.8789
800.00,49.0104
802.00,49.1502
804.00,49.2787
806.00,49.3760
808.00,49.4414
810.00,49.4907
812.00,49.5359
814.00,49.5911
816.00,49.6377
818.00,49.6994
820.00,49.7607
822.00,49.8226
824.00,49.8582
826.00,49.8490
828.00,49.8306
830.00,50.2046
832.00,50.4404
834.00,50.8179
836.00,50.7779
838.00,50.7379
840.00,50.6933
842.00,50.6511
844.00,50.6058
846.00,50.5700
848.00,50.5535
850.00,50.5646
852.00,50.6013
854.00,50.6717
856.00,50.7658
858.00,50.8594
860.00,50.9315
862.00,50.9793
864.00,50.9858
866.00,50.8291
868.00,50.1840
870.00,48.5215
872.00,45.3154
874.00,40.2857
876.00,33.7360
878.00,26.3116
880.00,19.0541
882.00,12.8111
884.00,8.1220
886.00,4.9647
888.00,2.9926
890.00,1.8304
892.00,1.1586
894.00,0.7765
896.00,0.5558
898.00,0.4191
900.00,0.3343
902.00,0.2785
904.00,0.2429
906.00,0.2177
908.00,0.2005
910.00,0.1875
912.00,0.1777
914.00,0.1710
916.00,0.1647
918.00,0.1614
920.00,0.1603
922.00,0.1592
924.00,0.1565
926.00,0.1531
928.00,0.1510
930.00,0.1508
932.00,0.1509
934.00,0.1508
936.00,0.1502
938.00,0.1486
940.00,0.1482
942.00,0.1487
944.00,0.1505
946.00,0.1512
948.00,0.1509
950.00,0.1494
952.00,0.1487
954.00,0.1492
956.00,0.1488
958.00,0.1486
960.00,0.1473
962.00,0.1478
964.00,0.1478
966.00,0.1475
968.00,0.1466
970.00,0.1459
972.00,0.1450
974.00,0.1440
976.00,0.1428
978.00,0.1421
980.00,0.1412
982.00,0.1408
984.00,0.1405
986.00,0.1397
988.00,0.1388
990.00,0.1385
992.00,0.1385
994.00,0.1389
996.00,0.1385
998.00,0.1387
1000.00,0.1391
1002.00,0.1395
1004.00,0.1404
1006.00,0.1416
1008.00,0.1434
1010.00,0.1448
1012.00,0.1466
1014.00,0.1488
1016.00,0.1510
1018.00,0.1531
1020.00,0.1546
1022.00,0.1563
1024.00,0.1573
1026.00,0.1578
1028.00,0.1580
1030.00,0.1581
1032.00,0.1581
1034.00,0.1577
1036.00,0.1569
1038.00,0.1562
1040.00,0.1552
1042.00,0.1545
1044.00,0.1539
1046.00,0.1532
1048.00,0.1525
1050.00,0.1515
1052.00,0.1508
1054.00,0.1499
1056.00,0.1492
1058.00,0.1486
1060.00,0.1484
1062.00,0.1483
1064.00,0.1482
1066.00,0.1481
1068.00,0.1482
1070.00,0.1485
1072.00,0.1490
1074.00,0.1498
1076.00,0.1508
1078.00,0.1524
1080.00,0.1543
1082.00,0.1565
1084.00,0.1584
1086.00,0.1610
1088.00,0.1637
1090.00,0.1669
1092.00,0.1701
1094.00,0.1738
1096.00,0.1773
1098.00,0.1804
1100.00,0.1836
1102.00,0.1867
1104.00,0.1896
1106.00,0.1923
1108.00,0.1947
1110.00,0.1971
1112.00,0.1991
1114.00,0.2010
1116.00,0.2029
1118.00,0.2055
1120.00,0.2085
1122.00,0.2117
1124.00,0.2151
1126.00,0.2191
1128.00,0.2243
1130.00,0.2307
1132.00,0.2386
1134.00,0.2487
1136.00,0.2617
1138.00,0.2778
1140.00,0.2984
1142.00,0.3247
1144.00,0.3606
1146.00,0.4086
1148.00,0.4765
1150.00,0.5716
1152.00,0.7112
1154.00,0.9266
1156.00,1.2844
1158.00,1.9300
1160.00,3.1589
1162.00,5.3171
1164.00,8.4479
1166.00,12.0457
1168.00,15.0735
1170.00,16.4650
1172.00,15.7731
1174.00,13.3765
1176.00,10.2684
1178.00,7.3921
1180.00,5.2911
1182.00,3.9855
1184.00,3.2352
1186.00,2.7814
1188.00,2.5016
1190.00,2.3325
1192.00,2.2413
1194.00,2.2075
1196.00,2.2226
1198.00,2.2840
1200.00,2.3935
1202.00,2.5562
1204.00,2.7805
1206.00,3.0786
1208.00,3.4694
1210.00,3.9639
1212.00,4.6150
1214.00,5.4511
1216.00,6.5647
1218.00,8.0188
1220.00,9.9379
1222.00,12.4107
1224.00,15.6018
1226.00,19.4728
1228.00,23.9778
1230.00,28.6785
1232.00,33.2079
1234.00,36.9327
1236.00,39.4853
1238.00,40.6001
1240.00,40.3851
1242.00,39.1506
1244.00,37.3119
1246.00,35.2362
1248.00,33.1619
1250.00,31.2094
1252.00,29.4271
1254.00,27.8467
1256.00,26.4566
1258.00,25.2092
1260.00,24.0242
1262.00,22.8647
1264.00,21.7064
1266.00,20.5425
1268.00,19.3735
1270.00,18.2153
1272.00,17.0898
1274.00,16.0052
1276.00,14.9729
1278.00,14.0011
1280.00,13.1106
1282.00,12.3192
1284.00,11.6322
1286.00,11.0394
1288.00,10.5293
1290.00,10.0991
1292.00,9.7410
1294.00,9.4574
1296.00,9.2424
1298.00,9.1009
1300.00,9.0260
1302.00,9.0094
1304.00,9.0550
1306.00,9.1707
1308.00,9.3783
1310.00,9.6841
1312.00,10.0882
1314.00,10.5958
1316.00,11.1991
1318.00,11.9294
1320.00,12.7876
1322.00,13.7871
1324.00,14.9183
1326.00,16.1527
1328.00,17.5038
1330.00,18.9399
1332.00,20.4488
1334.00,21.9347
1336.00,23.2935
1338.00,24.4034
1340.00,25.1984
1342.00,25.6317
1344.00,25.6908
1346.00,25.3642
1348.00,24.7153
1350.00,23.8076
1352.00,22.7366
1354.00,21.5766
1356.00,20.3979
1358.00,19.2496
1360.00,18.1590
1362.00,17.1564
1364.00,16.2662
1366.00,15.4959
1368.00,14.8649
1370.00,14.3523
1372.00,13.9558
1374.00,13.6548
1376.00,13.4471
1378.00,13.3253
1380.00,13.2881
1382.00,13.3362
1384.00,13.4698
1386.00,13.6909
1388.00,13.9889
1390.00,14.3734
1392.00,14.8534
1394.00,15.4514
1396.00,16.1664
1398.00,16.9971
1400.00,17.9564
1402.00,19.0653
1404.00,20.3363
1406.00,21.7743
1408.00,23.3495
1410.00,25.0512
1412.00,26.8607
1414.00,28.7494
1416.00,30.6698
1418.00,32.5965
1420.00,34.4829
1422.00,36.2779
1424.00,37.9279
1426.00,39.3796
1428.00,40.5905
1430.00,41.4945
1432.00,42.1131
1434.00,42.4628
1436.00,42.5778
1438.00,42.4827
1440.00,42.2197
1442.00,41.8457
1444.00,41.3974
1446.00,40.9345
1448.00,40.4714
1450.00,40.0498
1452.00,39.6576
1454.00,39.3167
1456.00,39.0247
1458.00,38.7976
1460.00,38.6241
1462.00,38.4923
1464.00,38.3745
1466.00,38.2464
1468.00,38.0977
1470.00,37.9029
1472.00,37.6481
1474.00,37.3001
1476.00,36.8355
1478.00,36.2345
1480.00,35.4878
1482.00,34.6085
1484.00,33.6113
1486.00,32.5095
1488.00,31.2858
1490.00,29.9537
1492.00,28.5319
1494.00,27.0912
1496.00,25.6661
1498.00,24.2912
1500.00,22.9659
1502.00,21.6942
1504.00,20.4599
1506.00,19.2805
1508.00,18.1752
1510.00,17.1720
1512.00,16.2567
1514.00,15.4253
1516.00,14.6532
1518.00,13.9527
1520.00,13.3220
1522.00,12.7665
1524.00,12.2795
1526.00,11.8395
1528.00,11.4494
1530.00,11.1028
1532.00,10.8054
1534.00,10.5535
1536.00,10.3467
1538.00,10.1800
1540.00,10.0477
1542.00,9.9455
1544.00,9.8727
1546.00,9.8309
1548.00,9.8220
1550.00,9.8456
1552.00,9.9017
1554.00,9.9898
1556.00,10.1120
1558.00,10.2691
1560.00,10.4624
1562.00,10.6912
1564.00,10.9545
1566.00,11.2553
1568.00,11.5964
1570.00,11.9810
1572.00,12.4076
1574.00,12.8867
1576.00,13.4197
1578.00,14.0086
1580.00,14.6396
1582.00,15.3333
1584.00,16.0954
1586.00,16.9455
1588.00,17.8652
1590.00,18.8679
1592.00,19.9406
1594.00,21.0892
1596.00,22.2837
1598.00,23.5397
1600.00,24.8199
1602.00,26.1274
1604.00,27.4253
1606.00,28.7326
1608.00,30.0213
1610.00,31.2844
1612.00,32.4744
1614.00,33.5623
1616.00,34.5124
1618.00,35.3017
1620.00,35.9326
1622.00,36.4018
1624.00,36.7001
1626.00,36.8319
1628.00,36.8029
1630.00,36.6526
1632.00,36.3910
1634.00,36.0360
1636.00,35.6009
1638.00,35.1113
1640.00,34.5880
1642.00,34.0546
1644.00,33.5243
1646.00,33.0118
1648.00,32.5124
1650.00,31.2448
1652.00,29.6201
1654.00,28.2017
1656.00,27.6646
1658.00,27.4416
1660.00,27.1542
1662.00,26.5806
1664.00,26.3760
1666.00,26.1873
1668.00,26.1706
1670.00,26.0913
1672.00,25.9610
1674.00,26.0612
1676.00,26.2601
1678.00,26.3827
1680.00,26.4037
1682.00,26.4170
1684.00,27.0065
1686.00,27.2154
1688.00,27.5356
1690.00,27.1825
1692.00,27.5505
1694.00,27.6635
1696.00,28.4869
1698.00,28.8054
1700.00,29.0108
1702.00,28.7248
1704.00,28.6321
1706.00,28.4563
1708.00,28.3942
1710.00,28.2132
1712.00,28.2627
1714.00,28.3367
1716.00,28.4260
1718.00,28.6825
1720.00,28.5502
1722.00,28.8506
1724.00,28.7501
1726.00,28.7914
1728.00,28.3863
1730.00,27.6763
1732.00,27.0909
1734.00,26.6453
1736.00,26.9142
1738.00,26.6037
1740.00,26.5231
1742.00,26.2914
1744.00,26.3305
1746.00,25.9991
1748.00,25.6565
1750.00,25.7589
1752.00,25.5690
1754.00,25.0489
1756.00,24.2740
1758.00,24.1504
1760.00,24.3460
1762.00,24.2581
1764.00,24.0856
1766.00,23.6592
1768.00,23.6346
1770.00,24.0486
1772.00,24.1284
1774.00,24.3705
1776.00,23.7981
1778.00,23.5942
1780.00,24.0879
1782.00,24.9792
1784.00,25.9721
1786.00,26.3754
1788.00,26.7470
1790.00,27.4664
1792.00,27.9130
1794.00,27.9715
1796.00,28.5054
1798.00,29.5415
1800.00,30.4286
1802.00,30.7969
1804.00,30.8774
1806.00,31.8778
1808.00,32.3242
1810.00,33.2825
1812.00,33.9550
1814.00,34.8058
1816.00,35.2009
1818.00,36.0271
1820.00,36.9071
1822.00,37.5614
1824.00,38.1239
1826.00,38.8162
1828.00,39.6178
1830.00,40.1163
1832.00,40.1654
1834.00,39.5233
1836.00,38.7011
1838.00,38.5582
1840.00,38.8090
1842.00,38.9628
1844.00,38.3006
1846.00,37.8020
1848.00,37.6127
1850.00,36.9433
1852.00,36.6318
1854.00,35.5280
1856.00,34.8279
1858.00,33.9341
1860.00,33.4462
1862.00,32.9500
1864.00,31.7540
1866.00,30.6873
1868.00,29.8668
1870.00,29.1486
1872.00,28.5974
1874.00,27.7316
1876.00,27.1648
1878.00,26.4676
1880.00,25.3201
1882.00,24.5563
1884.00,23.3438
1886.00,23.0983
1888.00,22.2689
1890.00,21.4182
1892.00,20.8417
1894.00,20.7789
1896.00,20.6619
1898.00,20.1947
1900.00,19.4647
1902.00,18.9443
1904.00,18.4805
1906.00,18.2960
1908.00,18.7944
1910.00,19.6770
1912.00,19.4862
1914.00,19.0141
1916.00,18.5002
1918.00,18.1813
1920.00,17.8982
1922.00,17.5082
1924.00,18.3392
1926.00,18.8565
1928.00,19.0907
1930.00,19.0314
1932.00,19.1525
1934.00,18.7138
1936.00,18.5063
1938.00,18.8864
1940.00,19.5136
1942.00,19.8715
1944.00,19.5942
1946.00,19.7944
1948.00,20.1690
1950.00,20.6275
1952.00,21.2444
1954.00,21.1709
1956.00,21.7395
1958.00,22.1933
1960.00,22.7893
1962.00,22.8077
1964.00,22.7527
1966.00,23.1782
1968.00,23.7844
1970.00,24.5138
1972.00,25.2999
1974.00,26.2432
1976.00,27.2100
1978.00,27.1981
1980.00,27.2027
1982.00,27.3078
1984.00,28.7088
1986.00,29.6087
1988.00,30.6343
1990.00,31.0819
1992.00,32.2450
1994.00,32.7301
1996.00,33.4705
1998.00,33.5797
2000.00,33.3569
2002.00,34.4100
2004.00,35.3673
2006.00,37.4019
2008.00,37.7316
2010.00,37.3926
2012.00,37.0743
2014.00,37.2457
2016.00,38.3128
2018.00,39.8331
2020.00,40.8280
2022.00,41.2989
2024.00,41.5911
2026.00,41.5091
2028.00,42.5858
2030.00,42.9677
2032.00,43.4667
2034.00,43.2619
2036.00,43.0806
2038.00,43.5399
2040.00,44.6272
2042.00,45.6479
2044.00,45.6081
2046.00,45.1090
2048.00,45.3467
2050.00,46.1584
2052.00,46.4814
2054.00,45.5821
2056.00,45.1279
2058.00,44.3963
2060.00,45.0577
2062.00,44.7188
2064.00,44.8926
2066.00,44.5707
2068.00,44.2723
2070.00,43.7662
2072.00,43.3388
2074.00,43.7363
2076.00,44.8337
2078.00,44.6347
2080.00,43.9553
2082.00,42.9248
2084.00,43.4208
2086.00,44.7134
2088.00,44.3950
2090.00,43.9231
2092.00,42.9019
2094.00,44.0762
2096.00,44.6553
2098.00,45.1569
2100.00,44.9926
2102.00,44.3029
2104.00,44.7896
2106.00,44.2413
2108.00,44.9933
2110.00,44.1516
2112.00,45.0010
2114.00,44.1322
2116.00,44.9641
2118.00,44.4321
2120.00,44.9474
2122.00,44.4557
2124.00,44.9333
2126.00,44.9174
2128.00,44.9083
2130.00,44.2258
2132.00,44.4904
2134.00,45.4320
2136.00,45.8570
2138.00,46.0668
2140.00,45.8142
2142.00,45.5594
2144.00,45.2516
2146.00,44.7010
2148.00,44.6513
2150.00,44.7627
2152.00,43.6048
2154.00,43.4002
2156.00,43.5420
2158.00,43.7163
2160.00,43.8087
2162.00,43.5045
2164.00,43.9610
2166.00,44.0551
2168.00,43.4316
2170.00,42.9032
2172.00,42.7889
2174.00,43.2524
2176.00,43.4430
2178.00,42.0773
2180.00,39.5959
2182.00,38.8914
2184.00,38.4221
2186.00,39.4821
2188.00,38.8124
2190.00,39.0755
2192.00,39.4183
2194.00,39.1007
2196.00,38.7998
2198.00,37.1683
2200.00,37.2585
2202.00,36.9039
2204.00,37.0269
2206.00,36.0048
2208.00,36.0874
2210.00,36.6024
2212.00,36.9206
2214.00,36.0934
2216.00,35.4754
2218.00,34.8070
2220.00,34.6352
2222.00,34.4464
2224.00,35.0999
2226.00,34.3815
2228.00,33.8022
2230.00,32.3685
2232.00,32.3686
2234.00,31.9634
2236.00,31.3085
2238.00,31.5034
2240.00,30.5918
2242.00,31.2101
2244.00,30.3755
2246.00,30.1664
2248.00,30.3519
2250.00,29.7686
2252.00,29.1700
2254.00,28.1366
2256.00,29.0667
2258.00,29.5009
2260.00,28.7264
2262.00,27.3227
2264.00,27.4952
2266.00,27.3711
2268.00,28.4119
2270.00,28.6766
2272.00,30.7534
2274.00,31.0796
2276.00,31.0339
2278.00,30.4539
2280.00,30.2424
2282.00,31.0538
2284.00,30.5596
2286.00,29.8357
2288.00,29.1185
2290.00,29.6177
2292.00,30.6387
2294.00,30.5435
2296.00,30.1979
2298.00,29.3553
2300.00,29.6413
2302.00,30.0272
2304.00,31.2446
2306.00,32.0596
2308.00,32.1775
2310.00,32.3774
2312.00,31.9797
2314.00,32.7406
2316.00,32.3771
2318.00,32.8155
2320.00,32.9756
2322.00,34.2698
2324.00,33.9646
2326.00,35.0662
2328.00,34.6962
2330.00,35.4170
2332.00,35.1462
2334.00,35.5924
2336.00,36.0077
2338.00,36.5378
2340.00,36.0592
2342.00,34.8519
2344.00,34.3383
2346.00,34.5628
2348.00,36.6004
2350.00,37.2208
2352.00,38.5152
2354.00,37.4426
2356.00,37.9087
2358.00,37.2532
2360.00,39.4417
2362.00,39.1129
2364.00,39.7016
2366.00,38.6619
2368.00,37.8806
2370.00,38.4063
2372.00,37.9220
2374.00,39.5131
2376.00,37.5093
2378.00,37.9771
2380.00,36.9976
2382.00,38.5571
2384.00,36.5163
2386.00,35.8571
2388.00,36.0357
2390.00,39.0485
2392.00,39.8265
2394.00,39.3514
2396.00,38.2417
2398.00,38.2094
2400.00,37.6003
2402.00,38.2831
2404.00,39.0611
2406.00,38.6384
2408.00,37.9569
2410.00,36.0601
2412.00,37.4860
2414.00,37.1795
2416.00,36.4228
2418.00,34.9806
2420.00,34.6507
2422.00,36.7132
2424.00,35.5975
2426.00,36.0174
2428.00,34.1565
2430.00,35.3245
2432.00,33.3487
2434.00,32.5209
2436.00,32.5947
2438.00,34.3275
2440.00,34.9056
2442.00,35.1717
2444.00,33.9818
2446.00,33.6956
2448.00,34.0111
2450.00,34.1116
2452.00,34.8521
2454.00,31.7159
2456.00,32.4778
2458.00,32.9389
2460.00,33.5425
2462.00,31.0178
2464.00,29.3798
2466.00,28.2452
2468.00,28.8393
2470.00,28.6736
2472.00,30.4133
2474.00,29.7107
2476.00,29.5201
2478.00,27.6810
2480.00,29.1110
2482.00,29.1375
2484.00,28.4178
2486.00,27.7441
2488.00,28.2725
2490.00,29.9895
2492.00,28.7087
2494.00,28.3710
2496.00,27.8103
2498.00,26.4460
2500.00,26.7924
2502.00,26.9823
2504.00,30.2553
2506.00,29.8050
2508.00,29.7892
2510.00,27.9811
2512.00,27.7645
2514.00,28.7709
2516.00,29.2411
2518.00,29.0692
2520.00,28.3421
2522.00,28.4787
2524.00,28.5435
2526.00,28.8129
2528.00,28.9763
2530.00,29.4621
2532.00,28.4151
2534.00,29.2472
2536.00,28.9198
2538.00,28.8908
2540.00,27.3367
2542.00,27.7492
2544.00,28.4375
2546.00,28.6130
2548.00,27.7431
2550.00,27.1769
2552.00,27.0376
2554.00,25.8672
2556.00,28.1651
2558.00,31.1567
2560.00,32.5586
2562.00,30.0504
2564.00,28.0161
2566.00,29.1224
2568.00,28.3546
2570.00,28.1945
2572.00,26.8327
2574.00,28.6598
2576.00,28.9388
2578.00,30.0077
2580.00,28.9061
2582.00,28.5336
2584.00,27.6162
2586.00,28.4196
2588.00,28.4967
2590.00,29.1914
2592.00,29.3755
2594.00,30.1357
2596.00,29.1958
2598.00,30.6827
2600.00,32.5416
2602.00,33.1656
2604.00,33.2799
2606.00,31.7191
2608.00,34.7296
2610.00,34.5115
2612.00,34.6930
2614.00,31.4629
2616.00,30.9032
2618.00,29.5492
2620.00,28.9510
2622.00,26.9350
2624.00,28.6196
2626.00,30.5298
2628.00,32.7570
2630.00,33.5576
2632.00,34.4539
2634.00,35.1408
2636.00,35.2739
2638.00,34.9423
2640.00,35.6132
2642.00,34.5728
2644.00,34.4498
2646.00,33.9673
2648.00,33.9602
2650.00,34.1439
2652.00,33.3554
2654.00,33.2812
2656.00,32.7655
2658.00,32.5235
2660.00,32.9049
2662.00,32.4121
2664.00,34.1100
2666.00,32.6550
2668.00,34.5824
2670.00,32.1256
2672.00,30.5990
2674.00,30.0433
2676.00,29.7773
2678.00,31.4109
2680.00,30.0071
2682.00,28.1378
2684.00,29.4341
2686.00,27.2724
2688.00,29.5261
2690.00,29.2930
2692.00,30.4813
2694.00,29.4918
2696.00,27.7898
2698.00,26.4987
2700.00,25.9599
2702.00,25.2543
2704.00,24.1845
2706.00,23.9395
2708.00,23.1238
2710.00,22.1479
2712.00,20.9894
2714.00,20.3241
2716.00,19.4085
2718.00,18.2256
2720.00,17.4971
2722.00,16.7320
2724.00,15.2945
2726.00,13.7466
2728.00,13.6481
2730.00,12.3289
2732.00,10.7758
2734.00,10.5445
2736.00,10.6097
2738.00,9.4462
2740.00,10.4155
2742.00,10.2481
2744.00,10.1802
2746.00,9.3640
2748.00,9.6039
2750.00,8.7587
2752.00,9.0699
2754.00,7.5647
2756.00,7.5063
2758.00,7.2189
2760.00,6.8485
2762.00,6.3298
2764.00,6.6834
2766.00,5.5965
2768.00,5.1816
2770.00,5.2963
2772.00,4.3804
2774.00,4.6778
2776.00,5.4221
2778.00,5.5397
2780.00,5.2182
2782.00,5.6590
2784.00,5.2859
2786.00,5.1779
2788.00,4.8488
2790.00,4.0383
2792.00,4.1198
2794.00,3.2042
2796.00,2.8019
2798.00,2.1925
2800.00,2.6108
2802.00,2.5650
2804.00,3.6269
2806.00,4.5632
2808.00,4.9118
2810.00,5.3627
2812.00,5.1057
2814.00,4.5904
2816.00,3.9122
2818.00,3.8932
2820.00,3.1867
2822.00,3.5421
2824.00,3.9356
2826.00,4.3249
2828.00,4.5620
2830.00,4.4243
2832.00,4.2662
2834.00,3.6914
2836.00,3.5816
2838.00,3.3664
2840.00,4.6027
2842.00,5.2973
2844.00,6.0599
2846.00,5.8911
2848.00,5.8886
2850.00,5.1904
2852.00,5.2404
2854.00,5.2527
2856.00,5.4253
2858.00,5.5657
2860.00,5.7743
2862.00,5.0725
2864.00,5.1802
2866.00,5.4661
2868.00,5.8876
2870.00,6.2725
2872.00,7.3046
2874.00,7.5328
2876.00,7.7183
2878.00,7.6292
2880.00,7.6733
2882.00,7.3274
2884.00,7.1965
2886.00,7.3473
2888.00,7.3892
2890.00,6.8668
2892.00,6.7432
2894.00,7.5812
2896.00,7.5887
2898.00,8.2740
2900.00,9.4567
2902.00,9.5440
2904.00,9.4160
2906.00,9.5450
2908.00,8.9850
2910.00,8.3756
2912.00,8.7642
2914.00,8.5178
2916.00,8.6441
2918.00,9.3105
2920.00,9.2957
2922.00,9.7140
2924.00,9.5459
2926.00,9.4903
2928.00,9.7508
2930.00,10.0265
2932.00,9.6748
2934.00,10.4347
2936.00,10.7422
2938.00,10.7862
2940.00,11.1899
2942.00,11.1965
2944.00,10.6877
2946.00,9.8217
2948.00,9.8533
2950.00,9.1836
2952.00,10.2375
2954.00,9.9240
2956.00,9.8471
2958.00,8.9966
2960.00,8.9539
2962.00,7.7164
2964.00,7.6592
2966.00,8.7608
2968.00,9.8883
2970.00,9.2299
2972.00,9.4507
2974.00,10.1838
2976.00,10.1291
2978.00,9.0940
2980.00,9.5599
2982.00,10.5868
2984.00,10.0402
2986.00,10.4102
2988.00,10.5843
2990.00,10.5078
2992.00,10.0041
2994.00,11.1197
2996.00,11.2170
2998.00,11.7275
3000.00,12.2830
3002.00,10.7683
3004.00,11.3559
3006.00,11.5163
3008.00,11.4051
3010.00,11.3462
3012.00,11.0747
3014.00,11.6693
3016.00,11.8094
3018.00,12.0895
3020.00,11.9897
3022.00,12.0213
3024.00,11.9070
3026.00,11.9635
3028.00,11.7620
3030.00,12.4693
3032.00,12.4998
3034.00,12.5551
3036.00,12.4844
3038.00,12.3797
3040.00,12.1082
3042.00,12.3252
3044.00,12.2081
3046.00,12.4495
3048.00,11.9797
3050.00,11.3560
3052.00,11.3358
3054.00,11.2252
3056.00,10.8870
3058.00,10.8519
3060.00,9.9690
3062.00,9.8406
3064.00,8.5566
3066.00,9.0666
3068.00,9.4145
3070.00,9.5896
3072.00,9.3536
3074.00,9.8894
3076.00,9.0889
3078.00,9.7729
3080.00,9.7673
3082.00,10.8507
3084.00,10.5469
3086.00,10.2216
3088.00,9.9918
3090.00,9.8378
3092.00,9.6220
3094.00,10.7626
3096.00,10.3857
3098.00,10.2624
3100.00,10.3033
3102.00,9.9997
3104.00,10.5465
3106.00,10.9696
3108.00,11.6930
3110.00,11.1955
3112.00,11.0249
3114.00,12.0154
3116.00,11.9635
3118.00,11.4320
3120.00,11.3047
3122.00,11.5859
3124.00,10.8676
3126.00,10.9413
3128.00,10.6733
3130.00,10.2058
3132.00,9.1051
3134.00,10.1497
3136.00,11.3911
3138.00,11.6599
3140.00,10.1189
3142.00,10.3476
3144.00,10.4514
3146.00,11.6202
3148.00,12.0252
3150.00,12.5680
3152.00,11.8133
3154.00,10.8453
3156.00,11.2781
3158.00,12.4904
3160.00,13.0746
3162.00,11.8420
3164.00,10.5994
3166.00,9.3776
3168.00,7.4408
3170.00,8.2397
3172.00,8.1849
3174.00,8.5342
3176.00,7.8322
3178.00,5.9693
3180.00,6.2061
3182.00,7.2245
3184.00,7.4887
3186.00,8.0768
3188.00,6.3935
3190.00,7.2189
3192.00,6.5877
3194.00,5.4129
3196.00,4.8783
3198.00,6.2637
3200.00,6.2132
3202.00,5.4239
3204.00,7.9744
3206.00,8.5491
3208.00,8.3927
3210.00,6.8617
3212.00,7.4176
3214.00,9.0076
3216.00,7.6488
3218.00,6.7331
3220.00,10.0388
3222.00,8.3748
3224.00,7.0721
3226.00,6.0610
3228.00,6.8282
3230.00,10.5283
3232.00,8.2598
3234.00,8.6495
3236.00,8.1846
3238.00,3.4994
3240.00,3.2797
3242.00,5.5962
3244.00,6.7077
3246.00,6.1842
3248.00,2.2446
3250.00,6.3607
3252.00,2.6648
3254.00,-0.1407
3256.00,8.8235
3258.00,9.5806
3260.00,11.5390
3262.00,12.2470
3264.00,15.4973
3266.00,15.8002
3268.00,14.8364
3270.00,17.7391
3272.00,20.3776
3274.00,14.7325
3276.00,9.5250
3278.00,4.0167
3280.00,-1.8881
3282.00,-8.9479
3284.00,-5.2941
3286.00,-8.6289
3288.00,-5.5911
3290.00,-4.9552
3292.00,-9.3324
3294.00,-8.6092
3296.00,-10.1897
3298.00,-9.7962
3300.00,-9.1887
